Time [s], X-Pos [m], Y-Pos [m], phi [rad], dX-Pos [m/s], dY-Pos [m/s], dphi [rad/s], Path Vel [m/s]
0,0,0,0,0,0,0,0
0.05,7.38871e-05,0,0,0.00443323,0,0,0.00443323
0.1,0.000591097,0,0,0.0177329,0,0,0.0177329
0.15,0.00199495,0,0,0.0398991,0,0,0.0398991
0.2,0.00468974,0,0,0.0672811,0,0,0.0672811
0.25,0.00858209,0,0,0.0869353,0,0,0.0869353
0.3,0.0132355,0,0,0.0977229,0,0,0.0977229
0.35,0.0182083,0,0,0.1,0,0,0.1
0.4,0.0232083,0,0,0.1,0,0,0.1
0.45,0.0282083,0,0,0.1,0,0,0.1
0.5,0.0332083,0,0,0.1,0,0,0.1
0.55,0.0382083,0,0,0.1,0,0,0.1
0.6,0.0432083,0,0,0.1,0,0,0.1
0.65,0.0482083,0,0,0.1,0,0,0.1
0.7,0.0532083,0,0,0.1,0,0,0.1
0.75,0.0582083,0,0,0.1,0,0,0.1
0.8,0.0632083,0,0,0.1,0,0,0.1
0.85,0.0682083,0,0,0.1,0,0,0.1
0.9,0.0732083,0,0,0.1,0,0,0.1
0.95,0.0782083,0,0,0.1,0,0,0.1
1,0.0832083,0,0,0.1,0,0,0.1
1.05,0.0882083,0,0,0.1,0,0,0.1
1.1,0.0932083,0,0,0.1,0,0,0.1
1.15,0.0982083,0,0,0.1,0,0,0.1
1.2,0.103208,0,0,0.1,0,0,0.1
1.25,0.108208,0,0,0.1,0,0,0.1
1.3,0.113208,0,0,0.1,0,0,0.1
1.35,0.118208,0,0,0.1,0,0,0.1
1.4,0.123208,0,0,0.1,0,0,0.1
1.45,0.128208,0,0,0.1,0,0,0.1
1.5,0.133208,0,0,0.1,0,0,0.1
1.55,0.138208,0,0,0.1,0,0,0.1
1.6,0.143208,0,0,0.1,0,0,0.1
1.65,0.148208,0,0,0.1,0,0,0.1
1.7,0.153208,0,0,0.1,0,0,0.1
1.75,0.158208,0,0,0.1,0,0,0.1
1.8,0.163208,0,0,0.1,0,0,0.1
1.85,0.168208,0,0,0.1,0,0,0.1
1.9,0.173208,0,0,0.1,0,0,0.1
1.95,0.178208,0,0,0.1,0,0,0.1
2,0.183208,0,0,0.1,0,0,0.1
2.05,0.188208,0,0,0.1,0,0,0.1
2.1,0.193208,0,0,0.1,0,0,0.1
2.15,0.198208,0,0,0.1,0,0,0.1
2.2,0.203208,0,0,0.1,0,0,0.1
2.25,0.208208,0,0,0.1,0,0,0.1
2.3,0.213208,0,0,0.1,0,0,0.1
2.35,0.218208,0,0,0.1,0,0,0.1
2.4,0.223208,0,0,0.1,0,0,0.1
2.45,0.228208,0,0,0.1,0,0,0.1
2.5,0.233208,0,0,0.1,0,0,0.1
2.55,0.238208,0,0,0.1,0,0,0.1
2.6,0.243208,0,0,0.1,0,0,0.1
2.65,0.248208,0,0,0.1,0,0,0.1
2.7,0.253208,0,0,0.1,0,0,0.1
2.75,0.258208,0,0,0.1,0,0,0.1
2.8,0.263208,0,0,0.1,0,0,0.1
2.85,0.268208,0,0,0.1,0,0,0.1
2.9,0.273208,0,0,0.1,0,0,0.1
2.95,0.278208,0,0,0.1,0,0,0.1
3,0.283208,0,0,0.1,0,0,0.1
3.05,0.288208,0,0,0.1,0,0,0.1
3.1,0.293208,0,0,0.1,0,0,0.1
3.15,0.298208,0,0,0.1,0,0,0.1
3.2,0.303208,0,0,0.1,0,0,0.1
3.25,0.308208,0,0,0.1,0,0,0.1
3.3,0.313208,0,0,0.1,0,0,0.1
3.35,0.318208,0,0,0.1,0,0,0.1
3.4,0.323208,0,0,0.1,0,0,0.1
3.45,0.328208,0,0,0.1,0,0,0.1
3.5,0.333208,0,0,0.1,0,0,0.1
3.55,0.338208,0,0,0.1,0,0,0.1
3.6,0.343208,0,0,0.1,0,0,0.1
3.65,0.348208,0,0,0.1,0,0,0.1
3.7,0.353208,0,0,0.1,0,0,0.1
3.75,0.358208,0,0,0.1,0,0,0.1
3.8,0.363208,0,0,0.1,0,0,0.1
3.85,0.368208,0,0,0.1,0,0,0.1
3.9,0.373208,0,0,0.1,0,0,0.1
3.95,0.378208,0,0,0.1,0,0,0.1
4,0.383208,0,0,0.1,0,0,0.1
4.05,0.388208,0,0,0.1,0,0,0.1
4.1,0.393208,0,0,0.1,0,0,0.1
4.15,0.398208,0,0,0.1,0,0,0.1
4.2,0.403208,0,0,0.1,0,0,0.1
4.25,0.408208,0,0,0.1,0,0,0.1
4.3,0.413208,0,0,0.1,0,0,0.1
4.35,0.418208,0,0,0.1,0,0,0.1
4.4,0.423208,0,0,0.1,0,0,0.1
4.45,0.428208,0,0,0.1,0,0,0.1
4.5,0.433208,0,0,0.1,0,0,0.1
4.55,0.438208,0,0,0.1,0,0,0.1
4.6,0.443208,0,0,0.1,0,0,0.1
4.65,0.448208,0,0,0.1,0,0,0.1
4.7,0.453208,0,0,0.1,0,0,0.1
4.75,0.458208,0,0,0.1,0,0,0.1
4.8,0.463208,0,0,0.1,0,0,0.1
4.85,0.468208,0,0,0.1,0,0,0.1
4.9,0.473208,0,0,0.1,0,0,0.1
4.95,0.478208,0,0,0.1,0,0,0.1
5,0.483208,0,0,0.1,0,0,0.1
5.05,0.488208,0,0,0.1,0,0,0.1
5.1,0.493208,0,0,0.1,0,0,0.1
5.15,0.498208,0,0,0.1,0,0,0.1
5.2,0.503208,0,0,0.1,0,0,0.1
5.25,0.508208,0,0,0.1,0,0,0.1
5.3,0.513208,0,0,0.1,0,0,0.1
5.35,0.518208,0,0,0.1,0,0,0.1
5.4,0.523208,0,0,0.1,0,0,0.1
5.45,0.528208,0,0,0.1,0,0,0.1
5.5,0.533208,0,0,0.1,0,0,0.1
5.55,0.538208,0,0,0.1,0,0,0.1
5.6,0.543208,0,0,0.1,0,0,0.1
5.65,0.548208,0,0,0.1,0,0,0.1
5.7,0.553208,0,0,0.1,0,0,0.1
5.75,0.558208,0,0,0.1,0,0,0.1
5.8,0.563208,0,0,0.1,0,0,0.1
5.85,0.568208,0,0,0.1,0,0,0.1
5.9,0.573208,0,0,0.1,0,0,0.1
5.95,0.578208,0,0,0.1,0,0,0.1
6,0.583208,0,0,0.1,0,0,0.1
6.05,0.588208,0,0,0.1,0,0,0.1
6.1,0.593208,0,0,0.1,0,0,0.1
6.15,0.598208,0,0,0.1,0,0,0.1
6.2,0.603208,0,0,0.1,0,0,0.1
6.25,0.608208,0,0,0.1,0,0,0.1
6.3,0.613208,0,0,0.1,0,0,0.1
6.35,0.618208,0,0,0.1,0,0,0.1
6.4,0.623208,0,0,0.1,0,0,0.1
6.45,0.628208,0,0,0.1,0,0,0.1
6.5,0.633208,0,0,0.1,0,0,0.1
6.55,0.638208,0,0,0.1,0,0,0.1
6.6,0.643208,0,0,0.1,0,0,0.1
6.65,0.648208,0,0,0.1,0,0,0.1
6.7,0.653208,0,0,0.1,0,0,0.1
6.75,0.658208,0,0,0.1,0,0,0.1
6.8,0.663208,0,0,0.1,0,0,0.1
6.85,0.668208,0,0,0.1,0,0,0.1
6.9,0.673208,0,0,0.1,0,0,0.1
6.95,0.678208,0,0,0.1,0,0,0.1
7,0.683208,0,0,0.1,0,0,0.1
7.05,0.688208,0,0,0.1,0,0,0.1
7.1,0.693208,0,0,0.1,0,0,0.1
7.15,0.698208,0,0,0.1,0,0,0.1
7.2,0.703208,0,0,0.1,0,0,0.1
7.25,0.708208,0,0,0.1,0,0,0.1
7.3,0.713208,0,0,0.1,0,0,0.1
7.35,0.718208,0,0,0.1,0,0,0.1
7.4,0.723208,0,0,0.1,0,0,0.1
7.45,0.728208,0,0,0.1,0,0,0.1
7.5,0.733208,0,0,0.1,0,0,0.1
7.55,0.738208,0,0,0.1,0,0,0.1
7.6,0.743208,0,0,0.1,0,0,0.1
7.65,0.748208,0,0,0.1,0,0,0.1
7.7,0.753208,0,0,0.1,0,0,0.1
7.75,0.758208,0,0,0.1,0,0,0.1
7.8,0.763208,0,0,0.1,0,0,0.1
7.85,0.768208,0,0,0.1,0,0,0.1
7.9,0.773208,0,0,0.1,0,0,0.1
7.95,0.778208,0,0,0.1,0,0,0.1
8,0.783208,0,0,0.1,0,0,0.1
8.05,0.788208,0,0,0.1,0,0,0.1
8.1,0.793208,0,0,0.1,0,0,0.1
8.15,0.798208,0,0,0.1,0,0,0.1
8.2,0.803208,0,0,0.1,0,0,0.1
8.25,0.808208,0,0,0.1,0,0,0.1
8.3,0.813208,0,0,0.1,0,0,0.1
8.35,0.818208,0,0,0.1,0,0,0.1
8.4,0.823208,0,0,0.1,0,0,0.1
8.45,0.828208,0,0,0.1,0,0,0.1
8.5,0.833208,0,0,0.1,0,0,0.1
8.55,0.838208,0,0,0.1,0,0,0.1
8.6,0.843208,0,0,0.1,0,0,0.1
8.65,0.848208,0,0,0.1,0,0,0.1
8.7,0.853208,0,0,0.1,0,0,0.1
8.75,0.858208,0,0,0.1,0,0,0.1
8.8,0.863208,0,0,0.1,0,0,0.1
8.85,0.868208,0,0,0.1,0,0,0.1
8.9,0.873208,0,0,0.1,0,0,0.1
8.95,0.878208,0,0,0.1,0,0,0.1
9,0.883208,0,0,0.1,0,0,0.1
9.05,0.888208,0,0,0.1,0,0,0.1
9.1,0.893208,0,0,0.1,0,0,0.1
9.15,0.898208,0,0,0.1,0,0,0.1
9.2,0.903208,0,0,0.1,0,0,0.1
9.25,0.908208,0,0,0.1,0,0,0.1
9.3,0.913208,0,0,0.1,0,0,0.1
9.35,0.918208,0,0,0.1,0,0,0.1
9.4,0.923208,0,0,0.1,0,0,0.1
9.45,0.928208,0,0,0.1,0,0,0.1
9.5,0.933208,0,0,0.1,0,0,0.1
9.55,0.938208,0,0,0.1,0,0,0.1
9.6,0.943208,0,0,0.1,0,0,0.1
9.65,0.948208,0,0,0.1,0,0,0.1
9.7,0.953208,0,0,0.1,0,0,0.1
9.75,0.958208,0,0,0.1,0,0,0.1
9.8,0.963208,0,0,0.1,0,0,0.1
9.85,0.968208,0,0,0.1,0,0,0.1
9.9,0.973208,0,0,0.1,0,0,0.1
9.95,0.978208,0,0,0.1,0,0,0.1
10,0.983208,0,0,0.1,0,0,0.1
10.05,0.988208,0,0,0.1,0,0,0.1
10.1,0.993208,0,0,0.1,0,0,0.1
10.15,0.998208,0,0,0.1,0,0,0.1
10.2,1.00321,0,0,0.1,0,0,0.1
10.25,1.00821,0,0,0.1,0,0,0.1
10.3,1.01321,0,0,0.1,0,0,0.1
10.35,1.01821,0,0,0.1,0,0,0.1
10.4,1.02321,0,0,0.1,0,0,0.1
10.45,1.02821,0,0,0.1,0,0,0.1
10.5,1.03321,0,0,0.1,0,0,0.1
10.55,1.03821,0,0,0.1,0,0,0.1
10.6,1.04321,0,0,0.1,0,0,0.1
10.65,1.04821,0,0,0.1,0,0,0.1
10.7,1.05321,0,0,0.1,0,0,0.1
10.75,1.05821,0,0,0.1,0,0,0.1
10.8,1.06321,0,0,0.1,0,0,0.1
10.85,1.06821,0,0,0.1,0,0,0.1
10.9,1.07321,0,0,0.1,0,0,0.1
10.95,1.07821,0,0,0.1,0,0,0.1
11,1.08321,0,0,0.1,0,0,0.1
11.05,1.08821,0,0,0.1,0,0,0.1
11.1,1.09321,0,0,0.1,0,0,0.1
11.15,1.09821,0,0,0.1,0,0,0.1
11.2,1.10321,0,0,0.1,0,0,0.1
11.25,1.10821,0,0,0.1,0,0,0.1
11.3,1.11321,0,0,0.1,0,0,0.1
11.35,1.11821,0,0,0.1,0,0,0.1
11.4,1.12321,0,0,0.1,0,0,0.1
11.45,1.12821,0,0,0.1,0,0,0.1
11.5,1.13321,0,0,0.1,0,0,0.1
11.55,1.13821,0,0,0.1,0,0,0.1
11.6,1.14321,0,0,0.1,0,0,0.1
11.65,1.14821,0,0,0.1,0,0,0.1
11.7,1.15321,0,0,0.1,0,0,0.1
11.75,1.15821,0,0,0.1,0,0,0.1
11.8,1.16321,0,0,0.1,0,0,0.1
11.85,1.16821,0,0,0.1,0,0,0.1
11.9,1.17321,0,0,0.1,0,0,0.1
11.95,1.17821,0,0,0.1,0,0,0.1
12,1.18321,0,0,0.1,0,0,0.1
12.05,1.18821,0,0,0.1,0,0,0.1
12.1,1.19321,0,0,0.1,0,0,0.1
12.15,1.19821,0,0,0.1,0,0,0.1
12.2,1.20321,0,0,0.1,0,0,0.1
12.25,1.20821,0,0,0.1,0,0,0.1
12.3,1.21321,0,0,0.1,0,0,0.1
12.35,1.21821,0,0,0.1,0,0,0.1
12.4,1.22321,0,0,0.1,0,0,0.1
12.45,1.22821,0,0,0.1,0,0,0.1
12.5,1.23321,0,0,0.1,0,0,0.1
12.55,1.23821,0,0,0.1,0,0,0.1
12.6,1.24321,0,0,0.1,0,0,0.1
12.65,1.24821,0,0,0.1,0,0,0.1
12.7,1.25321,0,0,0.1,0,0,0.1
12.75,1.25821,0,0,0.1,0,0,0.1
12.8,1.26321,0,0,0.1,0,0,0.1
12.85,1.26821,0,0,0.1,0,0,0.1
12.9,1.27321,0,0,0.1,0,0,0.1
12.95,1.27821,0,0,0.1,0,0,0.1
13,1.28321,0,0,0.1,0,0,0.1
13.05,1.28821,0,0,0.1,0,0,0.1
13.1,1.29321,0,0,0.1,0,0,0.1
13.15,1.29821,0,0,0.1,0,0,0.1
13.2,1.30321,0,0,0.1,0,0,0.1
13.25,1.30821,0,0,0.1,0,0,0.1
13.3,1.31321,0,0,0.1,0,0,0.1
13.35,1.31821,0,0,0.1,0,0,0.1
13.4,1.32321,0,0,0.1,0,0,0.1
13.45,1.32821,0,0,0.1,0,0,0.1
13.5,1.33321,0,0,0.1,0,0,0.1
13.55,1.33821,0,0,0.1,0,0,0.1
13.6,1.34321,0,0,0.1,0,0,0.1
13.65,1.34821,0,0,0.1,0,0,0.1
13.7,1.35321,0,0,0.1,0,0,0.1
13.75,1.35821,0,0,0.1,0,0,0.1
13.8,1.36321,0,0,0.1,0,0,0.1
13.85,1.36821,0,0,0.1,0,0,0.1
13.9,1.37321,0,0,0.1,0,0,0.1
13.95,1.37821,0,0,0.1,0,0,0.1
14,1.38321,0,0,0.1,0,0,0.1
14.05,1.38821,0,0,0.1,0,0,0.1
14.1,1.39321,0,0,0.1,0,0,0.1
14.15,1.39821,0,0,0.1,0,0,0.1
14.2,1.40321,0,0,0.1,0,0,0.1
14.25,1.40821,0,0,0.1,0,0,0.1
14.3,1.41321,0,0,0.1,0,0,0.1
14.35,1.41821,0,0,0.1,0,0,0.1
14.4,1.42321,0,0,0.1,0,0,0.1
14.45,1.42821,0,0,0.1,0,0,0.1
14.5,1.43321,0,0,0.1,0,0,0.1
14.55,1.43821,0,0,0.1,0,0,0.1
14.6,1.44321,0,0,0.1,0,0,0.1
14.65,1.44821,0,0,0.1,0,0,0.1
14.7,1.45321,0,0,0.1,0,0,0.1
14.75,1.45821,0,0,0.1,0,0,0.1
14.8,1.46321,0,0,0.1,0,0,0.1
14.85,1.46821,0,0,0.1,0,0,0.1
14.9,1.47321,0,0,0.1,0,0,0.1
14.95,1.47821,0,0,0.1,0,0,0.1
15,1.48321,0,0,0.1,0,0,0.1
15.05,1.48821,0,0,0.1,0,0,0.1
15.1,1.49321,0,0,0.1,0,0,0.1
15.15,1.49821,0,0,0.1,0,0,0.1
15.2,1.50321,0,0,0.1,0,0,0.1
15.25,1.50821,0,0,0.1,0,0,0.1
15.3,1.51321,0,0,0.1,0,0,0.1
15.35,1.51821,0,0,0.1,0,0,0.1
15.4,1.52321,0,0,0.1,0,0,0.1
15.45,1.52821,0,0,0.1,0,0,0.1
15.5,1.53321,0,0,0.1,0,0,0.1
15.55,1.53821,0,0,0.1,0,0,0.1
15.6,1.54321,0,0,0.1,0,0,0.1
15.65,1.54821,0,0,0.1,0,0,0.1
15.7,1.55321,0,0,0.1,0,0,0.1
15.75,1.55821,0,0,0.1,0,0,0.1
15.8,1.56321,0,0,0.1,0,0,0.1
15.85,1.56821,0,0,0.1,0,0,0.1
15.9,1.57321,0,0,0.1,0,0,0.1
15.95,1.57821,0,0,0.1,0,0,0.1
16,1.58321,0,0,0.1,0,0,0.1
16.05,1.58821,0,0,0.1,0,0,0.1
16.1,1.59321,0,0,0.1,0,0,0.1
16.15,1.59821,0,0,0.1,0,0,0.1
16.2,1.60321,0,0,0.1,0,0,0.1
16.25,1.60821,0,0,0.1,0,0,0.1
16.3,1.61321,0,0,0.1,0,0,0.1
16.35,1.61821,0,0,0.1,0,0,0.1
16.4,1.62321,0,0,0.1,0,0,0.1
16.45,1.62821,0,0,0.1,0,0,0.1
16.5,1.63321,0,0,0.1,0,0,0.1
16.55,1.63821,0,0,0.1,0,0,0.1
16.6,1.64321,0,0,0.1,0,0,0.1
16.65,1.64821,0,0,0.1,0,0,0.1
16.7,1.65321,0,0,0.1,0,0,0.1
16.75,1.65821,0,0,0.1,0,0,0.1
16.8,1.66321,0,0,0.1,0,0,0.1
16.85,1.66821,0,0,0.1,0,0,0.1
16.9,1.67321,0,0,0.1,0,0,0.1
16.95,1.67821,0,0,0.1,0,0,0.1
17,1.68321,0,0,0.1,0,0,0.1
17.05,1.68821,0,0,0.1,0,0,0.1
17.1,1.69321,0,0,0.1,0,0,0.1
17.15,1.69821,0,0,0.1,0,0,0.1
17.2,1.70321,0,0,0.1,0,0,0.1
17.25,1.70821,0,0,0.1,0,0,0.1
17.3,1.71321,0,0,0.1,0,0,0.1
17.35,1.71821,0,0,0.1,0,0,0.1
17.4,1.72321,0,0,0.1,0,0,0.1
17.45,1.72821,0,0,0.1,0,0,0.1
17.5,1.73321,0,0,0.1,0,0,0.1
17.55,1.73821,0,0,0.1,0,0,0.1
17.6,1.74321,0,0,0.1,0,0,0.1
17.65,1.74821,0,0,0.1,0,0,0.1
17.7,1.75321,0,0,0.1,0,0,0.1
17.75,1.75821,0,0,0.1,0,0,0.1
17.8,1.76321,0,0,0.1,0,0,0.1
17.85,1.76821,0,0,0.1,0,0,0.1
17.9,1.77321,0,0,0.1,0,0,0.1
17.95,1.77821,0,0,0.1,0,0,0.1
18,1.78321,0,0,0.1,0,0,0.1
18.05,1.78821,0,0,0.1,0,0,0.1
18.1,1.79321,0,0,0.1,0,0,0.1
18.15,1.79821,0,0,0.1,0,0,0.1
18.2,1.80321,0,0,0.1,0,0,0.1
18.25,1.80821,0,0,0.1,0,0,0.1
18.3,1.81321,0,0,0.1,0,0,0.1
18.35,1.81821,0,0,0.1,0,0,0.1
18.4,1.82321,0,0,0.1,0,0,0.1
18.45,1.82821,0,0,0.1,0,0,0.1
18.5,1.83321,0,0,0.1,0,0,0.1
18.55,1.83821,0,0,0.1,0,0,0.1
18.6,1.84321,0,0,0.1,0,0,0.1
18.65,1.84821,0,0,0.1,0,0,0.1
18.7,1.85321,0,0,0.1,0,0,0.1
18.75,1.85821,0,0,0.1,0,0,0.1
18.8,1.86321,0,0,0.1,0,0,0.1
18.85,1.86821,0,0,0.1,0,0,0.1
18.9,1.87321,0,0,0.1,0,0,0.1
18.95,1.87821,0,0,0.1,0,0,0.1
19,1.88321,0,0,0.1,0,0,0.1
19.05,1.88821,0,0,0.1,0,0,0.1
19.1,1.89321,0,0,0.1,0,0,0.1
19.15,1.89821,0,0,0.1,0,0,0.1
19.2,1.90321,0,0,0.1,0,0,0.1
19.25,1.90821,0,0,0.1,0,0,0.1
19.3,1.91321,0,0,0.1,0,0,0.1
19.35,1.91821,0,0,0.1,0,0,0.1
19.4,1.92321,0,0,0.1,0,0,0.1
19.45,1.92821,0,0,0.1,0,0,0.1
19.5,1.93321,0,0,0.1,0,0,0.1
19.55,1.93821,0,0,0.1,0,0,0.1
19.6,1.94321,0,0,0.1,0,0,0.1
19.65,1.94821,0,0,0.1,0,0,0.1
19.7,1.95321,0,0,0.1,0,0,0.1
19.75,1.95821,0,0,0.1,0,0,0.1
19.8,1.96321,0,0,0.1,0,0,0.1
19.85,1.96821,0,0,0.1,0,0,0.1
19.9,1.97321,0,0,0.1,0,0,0.1
19.95,1.97821,0,0,0.1,0,0,0.1
20,1.98321,0,0,0.1,0,0,0.1
20.05,1.98821,0,0,0.1,0,0,0.1
20.1,1.99321,0,0,0.1,0,0,0.1
20.15,1.99821,0,0,0.1,0,0,0.1
20.2,2.00321,0,0,0.1,0,0,0.1
20.25,2.00821,0,0,0.1,0,0,0.1
20.3,2.01321,0,0,0.1,0,0,0.1
20.35,2.01821,0,0,0.1,0,0,0.1
20.4,2.02321,0,0,0.1,0,0,0.1
20.45,2.02821,0,0,0.1,0,0,0.1
20.5,2.03321,0,0,0.1,0,0,0.1
20.55,2.03821,0,0,0.1,0,0,0.1
20.6,2.04321,0,0,0.1,0,0,0.1
20.65,2.04821,0,0,0.1,0,0,0.1
20.7,2.05321,0,0,0.1,0,0,0.1
20.75,2.05821,0,0,0.1,0,0,0.1
20.8,2.06321,0,0,0.1,0,0,0.1
20.85,2.06821,0,0,0.1,0,0,0.1
20.9,2.07321,0,0,0.1,0,0,0.1
20.95,2.07821,0,0,0.1,0,0,0.1
21,2.08321,0,0,0.1,0,0,0.1
21.05,2.08821,0,0,0.1,0,0,0.1
21.1,2.09321,0,0,0.1,0,0,0.1
21.15,2.09821,0,0,0.1,0,0,0.1
21.2,2.10321,0,0,0.1,0,0,0.1
21.25,2.10821,0,0,0.1,0,0,0.1
21.3,2.11321,0,0,0.1,0,0,0.1
21.35,2.11821,0,0,0.1,0,0,0.1
21.4,2.12321,0,0,0.1,0,0,0.1
21.45,2.12821,0,0,0.1,0,0,0.1
21.5,2.13321,0,0,0.1,0,0,0.1
21.55,2.13821,0,0,0.1,0,0,0.1
21.6,2.14321,0,0,0.1,0,0,0.1
21.65,2.14821,0,0,0.1,0,0,0.1
21.7,2.15321,0,0,0.1,0,0,0.1
21.75,2.15821,0,0,0.1,0,0,0.1
21.8,2.16321,0,0,0.1,0,0,0.1
21.85,2.16821,0,0,0.1,0,0,0.1
21.9,2.17321,0,0,0.1,0,0,0.1
21.95,2.17821,0,0,0.1,0,0,0.1
22,2.18321,0,0,0.1,0,0,0.1
22.05,2.18821,0,0,0.1,0,0,0.1
22.1,2.19321,0,0,0.1,0,0,0.1
22.15,2.19821,0,0,0.1,0,0,0.1
22.2,2.20321,0,0,0.1,0,0,0.1
22.25,2.20821,0,0,0.1,0,0,0.1
22.3,2.21321,0,0,0.1,0,0,0.1
22.35,2.21821,0,0,0.1,0,0,0.1
22.4,2.22321,0,0,0.1,0,0,0.1
22.45,2.22821,0,0,0.1,0,0,0.1
22.5,2.23321,0,0,0.1,0,0,0.1
22.55,2.23821,0,0,0.1,0,0,0.1
22.6,2.24321,0,0,0.1,0,0,0.1
22.65,2.24821,0,0,0.1,0,0,0.1
22.7,2.25321,0,0,0.1,0,0,0.1
22.75,2.25821,0,0,0.1,0,0,0.1
22.8,2.26321,0,0,0.1,0,0,0.1
22.85,2.26821,0,0,0.1,0,0,0.1
22.9,2.27321,0,0,0.1,0,0,0.1
22.95,2.27821,0,0,0.1,0,0,0.1
23,2.28321,0,0,0.1,0,0,0.1
23.05,2.28821,0,0,0.1,0,0,0.1
23.1,2.29321,0,0,0.1,0,0,0.1
23.15,2.29821,0,0,0.1,0,0,0.1
23.2,2.30321,0,0,0.1,0,0,0.1
23.25,2.30821,0,0,0.1,0,0,0.1
23.3,2.31321,0,0,0.1,0,0,0.1
23.35,2.31821,0,0,0.1,0,0,0.1
23.4,2.32321,0,0,0.1,0,0,0.1
23.45,2.32821,0,0,0.1,0,0,0.1
23.5,2.33321,0,0,0.1,0,0,0.1
23.55,2.33821,0,0,0.1,0,0,0.1
23.6,2.34321,0,0,0.1,0,0,0.1
23.65,2.34821,0,0,0.1,0,0,0.1
23.7,2.35321,0,0,0.1,0,0,0.1
23.75,2.35821,0,0,0.1,0,0,0.1
23.8,2.36321,0,0,0.1,0,0,0.1
23.85,2.36821,0,0,0.1,0,0,0.1
23.9,2.37321,0,0,0.1,0,0,0.1
23.95,2.37821,0,0,0.1,0,0,0.1
24,2.38321,0,0,0.1,0,0,0.1
24.05,2.38821,0,0,0.1,0,0,0.1
24.1,2.39321,0,0,0.1,0,0,0.1
24.15,2.39821,0,0,0.1,0,0,0.1
24.2,2.40321,0,0,0.1,0,0,0.1
24.25,2.40821,0,0,0.1,0,0,0.1
24.3,2.41321,0,0,0.1,0,0,0.1
24.35,2.41821,0,0,0.1,0,0,0.1
24.4,2.42321,0,0,0.1,0,0,0.1
24.45,2.42821,0,0,0.1,0,0,0.1
24.5,2.43321,0,0,0.1,0,0,0.1
24.55,2.43821,0,0,0.1,0,0,0.1
24.6,2.44321,0,0,0.1,0,0,0.1
24.65,2.44821,0,0,0.1,0,0,0.1
24.7,2.45321,0,0,0.1,0,0,0.1
24.75,2.45821,0,0,0.1,0,0,0.1
24.8,2.46321,0,0,0.1,0,0,0.1
24.85,2.46821,0,0,0.1,0,0,0.1
24.9,2.47321,0,0,0.1,0,0,0.1
24.95,2.47821,0,0,0.1,0,0,0.1
25,2.48321,0,0,0.1,0,0,0.1
25.05,2.48821,0,0,0.1,0,0,0.1
25.1,2.49321,0,0,0.1,0,0,0.1
25.15,2.49821,0,0,0.1,0,0,0.1
25.2,2.50321,0,0,0.1,0,0,0.1
25.25,2.50821,0,0,0.1,0,0,0.1
25.3,2.51321,0,0,0.1,0,0,0.1
25.35,2.51821,0,0,0.1,0,0,0.1
25.4,2.52321,0,0,0.1,0,0,0.1
25.45,2.52821,0,0,0.1,0,0,0.1
25.5,2.53321,0,0,0.1,0,0,0.1
25.55,2.53821,0,0,0.1,0,0,0.1
25.6,2.54321,0,0,0.1,0,0,0.1
25.65,2.54821,0,0,0.1,0,0,0.1
25.7,2.55321,0,0,0.1,0,0,0.1
25.75,2.55821,0,0,0.1,0,0,0.1
25.8,2.56321,0,0,0.1,0,0,0.1
25.85,2.56821,0,0,0.1,0,0,0.1
25.9,2.57321,0,0,0.1,0,0,0.1
25.95,2.57821,0,0,0.1,0,0,0.1
26,2.58321,0,0,0.1,0,0,0.1
26.05,2.58821,0,0,0.1,0,0,0.1
26.1,2.59321,0,0,0.1,0,0,0.1
26.15,2.59821,0,0,0.1,0,0,0.1
26.2,2.60321,0,0,0.1,0,0,0.1
26.25,2.60821,0,0,0.1,0,0,0.1
26.3,2.61321,0,0,0.1,0,0,0.1
26.35,2.61821,0,0,0.1,0,0,0.1
26.4,2.62321,0,0,0.1,0,0,0.1
26.45,2.62821,0,0,0.1,0,0,0.1
26.5,2.63321,0,0,0.1,0,0,0.1
26.55,2.63821,0,0,0.1,0,0,0.1
26.6,2.64321,0,0,0.1,0,0,0.1
26.65,2.64821,0,0,0.1,0,0,0.1
26.7,2.65321,0,0,0.1,0,0,0.1
26.75,2.65821,0,0,0.1,0,0,0.1
26.8,2.66321,0,0,0.1,0,0,0.1
26.85,2.66821,0,0,0.1,0,0,0.1
26.9,2.67321,0,0,0.1,0,0,0.1
26.95,2.67821,0,0,0.1,0,0,0.1
27,2.68321,0,0,0.1,0,0,0.1
27.05,2.68821,0,0,0.1,0,0,0.1
27.1,2.69321,0,0,0.1,0,0,0.1
27.15,2.69821,0,0,0.1,0,0,0.1
27.2,2.70321,0,0,0.1,0,0,0.1
27.25,2.70821,0,0,0.1,0,0,0.1
27.3,2.71321,0,0,0.1,0,0,0.1
27.35,2.71821,0,0,0.1,0,0,0.1
27.4,2.72321,0,0,0.1,0,0,0.1
27.45,2.72821,0,0,0.1,0,0,0.1
27.5,2.73321,0,0,0.1,0,0,0.1
27.55,2.73821,0,0,0.1,0,0,0.1
27.6,2.74321,0,0,0.1,0,0,0.1
27.65,2.74821,0,0,0.1,0,0,0.1
27.7,2.75321,0,0,0.1,0,0,0.1
27.75,2.75821,0,0,0.1,0,0,0.1
27.8,2.76321,0,0,0.1,0,0,0.1
27.85,2.76821,0,0,0.1,0,0,0.1
27.9,2.77321,0,0,0.1,0,0,0.1
27.95,2.77821,0,0,0.1,0,0,0.1
28,2.78321,0,0,0.1,0,0,0.1
28.05,2.78821,0,0,0.1,0,0,0.1
28.1,2.79321,0,0,0.1,0,0,0.1
28.15,2.79821,0,0,0.1,0,0,0.1
28.2,2.80321,0,0,0.1,0,0,0.1
28.25,2.80821,0,0,0.1,0,0,0.1
28.3,2.81321,0,0,0.1,0,0,0.1
28.35,2.81821,0,0,0.1,0,0,0.1
28.4,2.82321,0,0,0.1,0,0,0.1
28.45,2.82821,0,0,0.1,0,0,0.1
28.5,2.83321,0,0,0.1,0,0,0.1
28.55,2.83821,0,0,0.1,0,0,0.1
28.6,2.84321,0,0,0.1,0,0,0.1
28.65,2.84821,0,0,0.1,0,0,0.1
28.7,2.85321,0,0,0.1,0,0,0.1
28.75,2.85821,0,0,0.1,0,0,0.1
28.8,2.86321,0,0,0.1,0,0,0.1
28.85,2.86821,0,0,0.1,0,0,0.1
28.9,2.87321,0,0,0.1,0,0,0.1
28.95,2.87821,0,0,0.1,0,0,0.1
29,2.88321,0,0,0.1,0,0,0.1
29.05,2.88821,0,0,0.1,0,0,0.1
29.1,2.89321,0,0,0.1,0,0,0.1
29.15,2.89821,0,0,0.1,0,0,0.1
29.2,2.90321,0,0,0.1,0,0,0.1
29.25,2.90821,0,0,0.1,0,0,0.1
29.3,2.91321,0,0,0.1,0,0,0.1
29.35,2.91821,0,0,0.1,0,0,0.1
29.4,2.92321,0,0,0.1,0,0,0.1
29.45,2.92821,0,0,0.1,0,0,0.1
29.5,2.93321,0,0,0.1,0,0,0.1
29.55,2.93821,0,0,0.1,0,0,0.1
29.6,2.94321,0,0,0.1,0,0,0.1
29.65,2.94821,0,0,0.1,0,0,0.1
29.7,2.95321,0,0,0.1,0,0,0.1
29.75,2.95821,0,0,0.1,0,0,0.1
29.8,2.96321,0,0,0.1,0,0,0.1
29.85,2.96821,0,0,0.1,0,0,0.1
29.9,2.97321,0,0,0.1,0,0,0.1
29.95,2.97821,0,0,0.1,0,0,0.1
30,2.98321,0,0,0.1,0,0,0.1
30.05,2.98821,0,0,0.1,0,0,0.1
30.1,2.99321,0,0,0.1,0,0,0.1
30.15,2.99821,0,0,0.1,0,0,0.1
30.2,3.00321,0,0,0.1,0,0,0.1
30.25,3.00821,0,0,0.1,0,0,0.1
30.3,3.01321,0,0,0.1,0,0,0.1
30.35,3.01821,0,0,0.1,0,0,0.1
30.4,3.02321,0,0,0.1,0,0,0.1
30.45,3.02821,0,0,0.1,0,0,0.1
30.5,3.03321,0,0,0.1,0,0,0.1
30.55,3.03821,0,0,0.1,0,0,0.1
30.6,3.04321,0,0,0.1,0,0,0.1
30.65,3.04821,0,0,0.1,0,0,0.1
30.7,3.05321,0,0,0.1,0,0,0.1
30.75,3.05821,0,0,0.1,0,0,0.1
30.8,3.06321,0,0,0.1,0,0,0.1
30.85,3.06821,0,0,0.1,0,0,0.1
30.9,3.07321,0,0,0.1,0,0,0.1
30.95,3.07821,0,0,0.1,0,0,0.1
31,3.08321,0,0,0.1,0,0,0.1
31.05,3.08821,0,0,0.1,0,0,0.1
31.1,3.09321,0,0,0.1,0,0,0.1
31.15,3.09821,0,0,0.1,0,0,0.1
31.2,3.10321,0,0,0.1,0,0,0.1
31.25,3.10821,0,0,0.1,0,0,0.1
31.3,3.11321,0,0,0.1,0,0,0.1
31.35,3.11821,0,0,0.1,0,0,0.1
31.4,3.12321,0,0,0.1,0,0,0.1
31.45,3.12821,0,0,0.1,0,0,0.1
31.5,3.13321,0,0,0.1,0,0,0.1
31.55,3.13821,0,0,0.1,0,0,0.1
31.6,3.14321,0,0,0.1,0,0,0.1
31.65,3.14821,0,0,0.1,0,0,0.1
31.7,3.15321,0,0,0.1,0,0,0.1
31.75,3.15821,0,0,0.1,0,0,0.1
31.8,3.16321,0,0,0.1,0,0,0.1
31.85,3.16821,0,0,0.1,0,0,0.1
31.9,3.17321,0,0,0.1,0,0,0.1
31.95,3.17821,0,0,0.1,0,0,0.1
32,3.18321,0,0,0.1,0,0,0.1
32.05,3.18821,0,0,0.1,0,0,0.1
32.1,3.19321,0,0,0.1,0,0,0.1
32.15,3.19821,0,0,0.1,0,0,0.1
32.2,3.20321,0,0,0.1,0,0,0.1
32.25,3.20821,0,0,0.1,0,0,0.1
32.3,3.21321,0,0,0.1,0,0,0.1
32.35,3.21821,0,0,0.1,0,0,0.1
32.4,3.22321,0,0,0.1,0,0,0.1
32.45,3.22821,0,0,0.1,0,0,0.1
32.5,3.23321,0,0,0.1,0,0,0.1
32.55,3.23821,0,0,0.1,0,0,0.1
32.6,3.24321,0,0,0.1,0,0,0.1
32.65,3.24821,0,0,0.1,0,0,0.1
32.7,3.25321,0,0,0.1,0,0,0.1
32.75,3.25821,0,0,0.1,0,0,0.1
32.8,3.26321,0,0,0.1,0,0,0.1
32.85,3.26821,0,0,0.1,0,0,0.1
32.9,3.27321,0,0,0.1,0,0,0.1
32.95,3.27821,0,0,0.1,0,0,0.1
33,3.28321,0,0,0.1,0,0,0.1
33.05,3.28821,0,0,0.1,0,0,0.1
33.1,3.29321,0,0,0.1,0,0,0.1
33.15,3.29821,0,0,0.1,0,0,0.1
33.2,3.30321,0,0,0.1,0,0,0.1
33.25,3.30821,0,0,0.1,0,0,0.1
33.3,3.31321,0,0,0.1,0,0,0.1
33.35,3.31821,0,0,0.1,0,0,0.1
33.4,3.32321,0,0,0.1,0,0,0.1
33.45,3.32821,0,0,0.1,0,0,0.1
33.5,3.33321,0,0,0.1,0,0,0.1
33.55,3.33821,0,0,0.1,0,0,0.1
33.6,3.34321,0,0,0.1,0,0,0.1
